# Wlen(nm) Transmission Continuum
1.921310016252316473e+03 1.559540395971377169e-01 7.898215724799595591e+03
1.921316561248371727e+03 1.627260621550462860e-01 7.903248381821698786e+03
1.921323280007270114e+03 1.717134862637438864e-01 7.908404081946920996e+03
1.921329787782891572e+03 1.816257535251548094e-01 7.913387683626482612e+03
1.921336518509452162e+03 1.917547209107708095e-01 7.918531471862632316e+03
1.921343050970250943e+03 2.017721525099180624e-01 7.923513494268365321e+03
1.921349719348702138e+03 2.115428876110972412e-01 7.928588774764330083e+03
1.921356313738312792e+03 2.210494486191382224e-01 7.933597419125717352e+03
1.921362919597350810e+03 2.302753379054938987e-01 7.938604491939730906e+03
1.921369576086842017e+03 2.392280911616832817e-01 7.943639540715649673e+03
1.921376119255077811e+03 2.479566755269706768e-01 7.948578706311172027e+03
1.921382838015600782e+03 2.565394175996067450e-01 7.953639941540637665e+03
1.921389345022729913e+03 2.650282027240115634e-01 7.958531552943321913e+03
1.921396072822724591e+03 2.733799460722304286e-01 7.963578693902160921e+03
1.921402606356682327e+03 2.814888517622888275e-01 7.968469938687751892e+03
1.921409271051098131e+03 2.892591843295125864e-01 7.973449070894699616e+03
1.921415867270304943e+03 2.966502171357020545e-01 7.978366808931544256e+03
1.921422468687501123e+03 3.036565209583696467e-01 7.983278235859270353e+03
1.921429127763376982e+03 3.102783789291698180e-01 7.988222246147793157e+03
1.921435665731634572e+03 3.165047831972935821e-01 7.993066271656608478e+03
1.921442387835664022e+03 3.223107526727279071e-01 7.998036332787556603e+03
1.921448894072328585e+03 3.276630773846304079e-01 8.002836765541954264e+03
1.921455615597166116e+03 3.325114314355814837e-01 8.007785696505255146e+03
1.921462153548337255e+03 3.367904139309963463e-01 8.012589387986238762e+03
1.921468811208617353e+03 3.404148182668886857e-01 8.017470831557723614e+03
1.921475412602997949e+03 3.432804044187077741e-01 8.022300864981659288e+03
1.921482006226745852e+03 3.452547533802148849e-01 8.027115127947371548e+03
1.921488671236086702e+03 3.461691491411909571e-01 8.031971278944083679e+03
1.921495200651224650e+03 3.457957760728086472e-01 8.036718668436956250e+03
1.921501929447364319e+03 3.438240699158426894e-01 8.041600712266380469e+03
1.921508434911607310e+03 3.398290662366902359e-01 8.046310777522251556e+03
1.921515146805992345e+03 3.332460360355921636e-01 8.051160068013768978e+03
1.921521692525141134e+03 3.233320051688564067e-01 8.055879297185424548e+03
1.921528339794477688e+03 3.091652600144439988e-01 8.060661643550942244e+03
1.921534949716309711e+03 2.897151291209626445e-01 8.065407041208090050e+03
1.921541532188268320e+03 2.641284539088101235e-01 8.070122753428734541e+03
1.921548206484878392e+03 2.324178819867117052e-01 8.074894091943648164e+03
1.921554723987056150e+03 1.964553237316391532e-01 8.079543480346095748e+03
1.921561462830611845e+03 1.609290858888789977e-01 8.084340531733033458e+03
1.921567967520455340e+03 1.330574195776821345e-01 8.088961040132152448e+03
1.921574666422359087e+03 1.199459387480440176e-01 8.093709389812877816e+03
1.921581223266982533e+03 1.241758608713704470e-01 8.098347116445173924e+03
1.921587856781834489e+03 1.415953972698504870e-01 8.103029086706816997e+03
1.921594478590122662e+03 1.636393492773569047e-01 8.107692786677886943e+03
1.921601046545239342e+03 1.816462093507454911e-01 8.112308690594180007e+03
1.921607733489628799e+03 1.892698537468519293e-01 8.116998133120047896e+03
1.921614237579592555e+03 1.828835187518632055e-01 8.121549589441244279e+03
1.921620986097913374e+03 1.616013965576532097e-01 8.126261935555882701e+03
1.921627491878756246e+03 1.276335338339031067e-01 8.130794999764652857e+03
1.921634174419434885e+03 8.723721281169903585e-02 8.135441236357021808e+03
1.921640745753738656e+03 5.020545946078154576e-02 8.140000291061442113e+03
1.921647362143825831e+03 2.508337200864420649e-02 8.144580733900363157e+03
1.921653999204299907e+03 1.415860731370851416e-02 8.149165545583538005e+03
1.921660549270781758e+03 1.419386394401140304e-02 8.153680510747954941e+03
1.921667252230207851e+03 1.945124260207762093e-02 8.158290845576015272e+03
1.921673755542278059e+03 2.345006284092377574e-02 8.162754184509698462e+03
1.921680485088588284e+03 2.201994339155640551e-02 8.167362767941507627e+03
1.921687007966370629e+03 1.594988362819971250e-02 8.171820097923968206e+03
1.921693670770323024e+03 9.015014845974991461e-03 8.176363175087356467e+03
1.921700259965252371e+03 4.091577315637060647e-03 8.180846261429097467e+03
1.921706855853566140e+03 1.936784377206364222e-03 8.185324151016397991e+03
1.921713511538693183e+03 2.638391713259566340e-03 8.189832757228230548e+03
1.921720040338014769e+03 7.405516325165084970e-03 8.194245778212845835e+03
1.921726762686461370e+03 1.919072356776386698e-02 8.198779667511093066e+03
1.921733265218658289e+03 4.153009018908410122e-02 8.203155698320282681e+03
1.921739972412243787e+03 7.593891809637599855e-02 8.207659576443269543e+03
1.921746515763135676e+03 1.203896067879365317e-01 8.212043771204071163e+03
1.921753155448137250e+03 1.703641714526834272e-01 8.216482766458091646e+03
1.921759765881376097e+03 2.211191782877459377e-01 8.220892463050662627e+03
1.921766337884173254e+03 2.691940388575336796e-01 8.225266896941009691e+03
1.921773015573152406e+03 3.127328018394519571e-01 8.229701856009598487e+03
1.921779519720041890e+03 3.511303705336555336e-01 8.234012050292802087e+03
1.921786264838219950e+03 3.845521312505337241e-01 8.238472032205931100e+03
1.921792766588562699e+03 4.135543966928744153e-01 8.242761563652400582e+03
1.921799448041967707e+03 4.387426968886731782e-01 8.247159916050584798e+03
1.921806015248870835e+03 4.606769473095598255e-01 8.251473451271804151e+03
1.921812628425941284e+03 4.798541563377076158e-01 8.255807563866603232e+03
1.921819263481916551e+03 4.967300263066806165e-01 8.260146326477763068e+03
1.921825808208690660e+03 5.116824692071838543e-01 8.264416523481784679e+03
1.921832511287469515e+03 5.250160036720749046e-01 8.268780271361394625e+03
1.921839012432162008e+03 5.369848246779003187e-01 8.273003125743467535e+03
1.921845733622551961e+03 5.477902250551975882e-01 8.277359156229606015e+03
1.921852259631802099e+03 5.576022475072297535e-01 8.281579208340806872e+03
1.921858911950821721e+03 5.665584060596560168e-01 8.285871334691233642e+03
1.921865506403387599e+03 5.747802835673266886e-01 8.290116564852347437e+03
1.921872089676797032e+03 5.823626774095486125e-01 8.294345113659819617e+03
1.921878752746682267e+03 5.893794195593625718e-01 8.298615277321989197e+03
1.921885266800182990e+03 5.958918827127522855e-01 8.302780575404218325e+03
1.921891998661453954e+03 6.019490770248207001e-01 8.307075427783422128e+03
1.921898499020780037e+03 6.075941967434045354e-01 8.311213218903963934e+03
1.921905188446271268e+03 6.128596333127264151e-01 8.315461762519944386e+03
1.921911744328166378e+03 6.177740074431044004e-01 8.319616055253301965e+03
1.921918364111829987e+03 6.223557627157039196e-01 8.323801373197788052e+03
1.921924989206469490e+03 6.266185717434458180e-01 8.327980533693862526e+03
1.921931539173727288e+03 6.305778830935240276e-01 8.332102955081705659e+03
1.921938233655448357e+03 6.342666386952799940e-01 8.336306736209640803e+03
1.921944733406397290e+03 6.377552235471753983e-01 8.340378965798081481e+03
1.921951457899742991e+03 6.411482044130315527e-01 8.344582397881929865e+03
1.921957977246849396e+03 6.445365499605075765e-01 8.348648279997983991e+03
1.921964631501234408e+03 6.479192527919226396e-01 8.352788851874913234e+03
1.921971220657423828e+03 6.511999457944871450e-01 8.356879522269115114e+03
1.921977804497995294e+03 6.542552362347319184e-01 8.360957565291042556e+03
1.921984463637871613e+03 6.569945870346260985e-01 8.365072774547059453e+03
1.921990976889717786e+03 6.593677195615798015e-01 8.369088620248730876e+03
1.921997706187974927e+03 6.613570563237932687e-01 8.373228118773948154e+03
1.922004205150042026e+03 6.629710593517547101e-01 8.377216719602816738e+03
1.922010891832470406e+03 6.642265556564345141e-01 8.381311096895913579e+03
1.922017447090142014e+03 6.651372861890898491e-01 8.385315723034789698e+03
1.922024062760438710e+03 6.656427541403612258e-01 8.389347952484216876e+03
1.922030688599322957e+03 6.655830002606145657e-01 8.393377022258942816e+03
1.922037233082308603e+03 6.649187841344353922e-01 8.397347437558164529e+03
1.922043929677360893e+03 6.641193655911004079e-01 8.401400699169311338e+03
1.922050428028323040e+03 6.642031363894781437e-01 8.405324852754851236e+03
1.922057145092971723e+03 6.660086739705041170e-01 8.409371652857436857e+03
1.922063668495210095e+03 6.693478068377343160e-01 8.413292614156336640e+03
1.922070313948491275e+03 6.731426462663521182e-01 8.417277660508156259e+03
1.922076908530380933e+03 6.763087892006739432e-01 8.421222956979667288e+03
1.922083482196848308e+03 6.782655059017689281e-01 8.425146585369489912e+03
1.922090148133607499e+03 6.789218793953771813e-01 8.429115963072377781e+03
1.922096649837714494e+03 6.785909765714022157e-01 8.432978509404872966e+03
1.922103387304645821e+03 6.779846640116593548e-01 8.436971714259232613e+03
1.922109884863200477e+03 6.780596084227669129e-01 8.440813671971232907e+03
1.922116558049580817e+03 6.794534217244142527e-01 8.444750230604291573e+03
1.922123123421622495e+03 6.819806165410309262e-01 8.448614054521318394e+03
1.922129724220754952e+03 6.848515053574313338e-01 8.452489604166077697e+03
1.922136361547291699e+03 6.873039310738434660e-01 8.456377385766101725e+03
1.922142889783387545e+03 6.889308712867869833e-01 8.460192264354447616e+03
1.922149599239983900e+03 6.896142722396758629e-01 8.464103747497701988e+03
1.922156096184700800e+03 6.893200873594168554e-01 8.467882370999437626e+03
1.922162795051126068e+03 6.879440167758723579e-01 8.471769201399496524e+03
1.922169333263612089e+03 6.852705149322033673e-01 8.475553788859975612e+03
1.922175959141456360e+03 6.809803811773668114e-01 8.479380031825303377e+03
1.922182569908982487e+03 6.746063542809704883e-01 8.483188440698873819e+03
1.922189122622173272e+03 6.654372281814023848e-01 8.486954436099435043e+03
1.922195806120567113e+03 6.524013569004215585e-01 8.490786408251489775e+03
1.922202302450256411e+03 6.339205874134711260e-01 8.494502183903765399e+03
1.922209024940537574e+03 6.079394774660819012e-01 8.498338108898149585e+03
1.922215538046924394e+03 5.723303125427428029e-01 8.502045632143952389e+03
1.922222186946359216e+03 5.262861348462704036e-01 8.505821403592221031e+03
1.922228773209241808e+03 4.727314056921738117e-01 8.509552599479218770e+03
1.922235348341499275e+03 4.207163706667876313e-01 8.513268559140076832e+03
1.922242007936976961e+03 3.850460951867895054e-01 8.517023167607843789e+03
1.922248509125644432e+03 3.791938659910384368e-01 8.520679657306338413e+03
1.922255242229896794e+03 4.051395958745210302e-01 8.524457418214604331e+03
1.922261737762101802e+03 4.521363154567981102e-01 8.528093054662767827e+03
1.922268407622852465e+03 5.057202916064182929e-01 8.531817252075115903e+03
1.922274971438619104e+03 5.558342241776292880e-01 8.535473331866749504e+03
1.922281566928746997e+03 5.980547023515322413e-01 8.539138165319964173e+03
1.922288204679756518e+03 6.315281437770221551e-01 8.542817494788045224e+03
1.922294725622580017e+03 6.570687801276566820e-01 8.546423307906439732e+03
1.922301437485274846e+03 6.762122094713197695e-01 8.550125625063019470e+03
1.922307932399709443e+03 6.905664070269895705e-01 8.553699524872532493e+03
1.922314621158337786e+03 7.014549766168658440e-01 8.557371107254044546e+03
1.922321164587668818e+03 7.098746841986536271e-01 8.560954105775792414e+03
1.922327778371306977e+03 7.165041664148340539e-01 8.564566783851327273e+03
1.922334396339448631e+03 7.217999044039097312e-01 8.568172857163730441e+03
1.922340934971148499e+03 7.260699700504348320e-01 8.571726976293099142e+03
1.922347627654808321e+03 7.295179480006661610e-01 8.575355860626790673e+03
1.922354121950275612e+03 7.322628270174260656e-01 8.578868509356787399e+03
1.922360827540188211e+03 7.343432937909082359e-01 8.582486496450526829e+03
1.922367352646931522e+03 7.357152463623467531e-01 8.585998387259209267e+03
1.922373982656562248e+03 7.362416324685012725e-01 8.589557941296588979e+03
1.922380582906595919e+03 7.357545536167818812e-01 8.593092720250830098e+03
1.922387137158725409e+03 7.342071488800718804e-01 8.596594188260154624e+03
1.922393812729041429e+03 7.319507395806911232e-01 8.600151589884191708e+03
1.922400306404345656e+03 7.299329250448471917e-01 8.603603472850207254e+03
1.922407026755773586e+03 7.290876020826916326e-01 8.607166944333832362e+03
1.922413535606935739e+03 7.291483144159847107e-01 8.610609640503056653e+03
1.922420179771871517e+03 7.284965770647221506e-01 8.614115161552728750e+03
1.922426764371732361e+03 7.252071095434514669e-01 8.617580547698722512e+03
1.922433332172694008e+03 7.179623219226707320e-01 8.621028466950530856e+03
1.922439992698509514e+03 7.066152013322063441e-01 8.624516275944974041e+03
1.922446485752451736e+03 6.930774406403527044e-01 8.627907878215875826e+03
1.922453218792466259e+03 6.822782056637519688e-01 8.631415972916416649e+03
1.922459713458212946e+03 6.802025491989791561e-01 8.634791327829054353e+03
1.922466369704602812e+03 6.886342830361246170e-01 8.638241965861181598e+03
1.922472940725384433e+03 7.033509441468898116e-01 8.641639801284896748e+03
1.922479520000396406e+03 7.185115240004151804e-01 8.645033332822156808e+03
1.922486167553727910e+03 7.307709728946680805e-01 8.648453380038872638e+03
1.922492669679528262e+03 7.394473181857683652e-01 8.651790155223579859e+03
1.922499393943006908e+03 7.453103472378049821e-01 8.655232145534315350e+03
1.922505886191283025e+03 7.495263677942091141e-01 8.658546909680891986e+03
1.922512552442108017e+03 7.529279137801254684e-01 8.661941872786472231e+03
1.922519111958068379e+03 7.558432524988893952e-01 8.665273940907649376e+03
1.922525700629182666e+03 7.583324018007812084e-01 8.668612303667434389e+03
1.922532337285214908e+03 7.604339971347733318e-01 8.671966361521417639e+03
1.922538848198528285e+03 7.621924646911715229e-01 8.675248475538861385e+03
1.922545562172504106e+03 7.636310133912620479e-01 8.678624252928897477e+03
1.922552053796669270e+03 7.647754015748944312e-01 8.681879844625544138e+03
1.922558727971726285e+03 7.656670942569183680e-01 8.685218398210427040e+03
1.922565278060294986e+03 7.663523090596759957e-01 8.688486424582562904e+03
1.922571874046398761e+03 7.668694430543504525e-01 8.691768894597895269e+03
1.922578501883487888e+03 7.672464036275175037e-01 8.695058677865859863e+03
1.922585019502268096e+03 7.675004112127531419e-01 8.698285417298462562e+03
1.922591725266008780e+03 7.676411117627502945e-01 8.701596685826065368e+03
1.922598216264859047e+03 7.676724514934727406e-01 8.704793589327275185e+03
1.922604896280784942e+03 7.675936334322442933e-01 8.708075055325663925e+03
1.922611439022572767e+03 7.673995806853174395e-01 8.711280708438076545e+03
1.922618040239366337e+03 7.670798936877805119e-01 8.714506618027036893e+03
1.922624661339038539e+03 7.666170113259068719e-01 8.717733784645239211e+03
1.922631183578071386e+03 7.659839843705675833e-01 8.720904492140403818e+03
1.922637883214039221e+03 7.651425992308060753e-01 8.724152899264012376e+03
1.922644373586375195e+03 7.640528054416951820e-01 8.727291598578474805e+03
1.922651057356619958e+03 7.626934618147873657e-01 8.730515354637323981e+03
1.922657594835399777e+03 7.611096439396808355e-01 8.733660246705441750e+03
1.922664199195423407e+03 7.594647712716253718e-01 8.736828983682573380e+03
1.922670815642381967e+03 7.578974944488215959e-01 8.739995135549779661e+03
1.922677340413262073e+03 7.563361421007194219e-01 8.743109209006421224e+03
1.922684036007072564e+03 7.545499843848216814e-01 8.746296346365124919e+03
1.922690525751688710e+03 7.523262018369558657e-01 8.749377325249068235e+03
1.922697211186533877e+03 7.495140559650185219e-01 8.752542803934889889e+03
1.922703745489265884e+03 7.459949883579007901e-01 8.755628491713596304e+03
1.922710350901852507e+03 7.416420011243110011e-01 8.758739498564116730e+03
1.922716964783980529e+03 7.362876179238195817e-01 8.761846182344601402e+03
1.922723489995138607e+03 7.297001963663896085e-01 8.764903074122705220e+03
1.922730183635610501e+03 7.215536651641986099e-01 8.768030478362161375e+03
1.922736672751307196e+03 7.113765231165833924e-01 8.771054220324604103e+03
1.922743357757843569e+03 6.985221564255437166e-01 8.774160908307958380e+03
1.922749890974655273e+03 6.820852470626452835e-01 8.777188893884780555e+03
1.922756495345985968e+03 6.608066577895834737e-01 8.780241666985597476e+03
1.922763108754344557e+03 6.329488668189560130e-01 8.783290374911695835e+03
1.922769632311016721e+03 5.962293404106735473e-01 8.786289591011769517e+03
1.922776326090130397e+03 5.481178985443522222e-01 8.789358744568289694e+03
1.922782814575698922e+03 4.866907921937048132e-01 8.792325732863229860e+03
1.922789497057835206e+03 4.126224196854671455e-01 8.795373170116688925e+03
1.922796031282046670e+03 3.317842937960949201e-01 8.798344901728467448e+03
1.922802632515096775e+03 2.568371420148595763e-01 8.801338990516376725e+03
1.922809247543930724e+03 2.051888991387419425e-01 8.804331161195699679e+03
1.922815767348172585e+03 1.918977648555325877e-01 8.807272260458850724e+03
1.922822463361104610e+03 2.209414545359730531e-01 8.810284592380723552e+03
1.922828951215339885e+03 2.828957988582126437e-01 8.813195310012197297e+03
1.922835629073797918e+03 3.607778643953676867e-01 8.816183089000562177e+03
1.922842166401910163e+03 4.385516666708449973e-01 8.819099961833586349e+03
1.922848762396475877e+03 5.062387778933566951e-01 8.822034968009151271e+03
1.922855381143212071e+03 5.603390927521937348e-01 8.824971987231201638e+03
1.922861895093891690e+03 6.015026978621599296e-01 8.827854580526423888e+03
1.922868595438992088e+03 6.320082881266925190e-01 8.830811467271010770e+03
1.922875082660687440e+03 6.541388890243461374e-01 8.833666396989890927e+03
1.922881753793011057e+03 6.696568425891099574e-01 8.836594161863929912e+03
1.922888296324715384e+03 6.798194131277714991e-01 8.839457518866498503e+03
1.922894884977402626e+03 6.854011437061059420e-01 8.842333095579153451e+03
1.922901509542651638e+03 6.868479236374946950e-01 8.845216297123730328e+03
1.922908015535454297e+03 6.842786170292671777e-01 8.848040046539870673e+03
1.922914722314271785e+03 6.772747728878654172e-01 8.850942812793382473e+03
1.922921208902215994e+03 6.647631097708817105e-01 8.853742437095235800e+03
1.922927871202742381e+03 6.455516839133665918e-01 8.856609882868495333e+03
1.922934421040911502e+03 6.195149216916779888e-01 8.859421015556123166e+03
1.922941000245143186e+03 5.890889918521713398e-01 8.862236866595307220e+03
1.922947632732712691e+03 5.605292219097725015e-01 8.865067533048730184e+03
1.922954128660119750e+03 5.430711470951981035e-01 8.867832151072652778e+03
1.922960843977384229e+03 5.441914741300559744e-01 8.870682070553237281e+03
1.922967329930372671e+03 5.641578140310292699e-01 8.873426871682380806e+03
1.922973981290261236e+03 5.959055131670707439e-01 8.876233743430271716e+03
1.922980540540960192e+03 6.303937582337182377e-01 8.878993892701915684e+03
1.922987108186954401e+03 6.613926430322478733e-01 8.881749771674418298e+03
1.922993750703837122e+03 6.864053545982108373e-01 8.884529135235943613e+03
1.923000236207625903e+03 7.054410413996470286e-01 8.887235114118477213e+03
1.923006958666257106e+03 7.195935851408555850e-01 8.890031952157512933e+03
1.923013445735599589e+03 7.301017953632071844e-01 8.892723140164638608e+03
1.923020084042810595e+03 7.379741705324600609e-01 8.895469232200684928e+03
1.923026654815297206e+03 7.439581453472206007e-01 8.898179589151981418e+03
1.923033208790086292e+03 7.485679378074079349e-01 8.900875298674684018e+03
1.923039863446471372e+03 7.521605316818840148e-01 8.903604541974729727e+03
1.923046348313235285e+03 7.549812596957710120e-01 8.906256523360618303e+03
1.923053056223129488e+03 7.571990913628534603e-01 8.908991806766905938e+03
1.923059556308340007e+03 7.589390502909038050e-01 8.911634680010613010e+03
